# Density (g cm^-3), BG (Ha)
1.000000000000000000e+00 5.965179999999999927e-01
1.368421052631578982e+00 5.553620000000000223e-01
1.736842105263157965e+00 5.095589999999999842e-01
2.105263157894736725e+00 4.613710000000000311e-01
2.473684210526315930e+00 4.120560000000000334e-01
2.842105263157894690e+00 3.621900000000000119e-01
3.210526315789473450e+00 3.121470000000000633e-01
3.578947368421052655e+00 2.621510000000000229e-01
3.947368421052631415e+00 2.123380000000000267e-01
4.315789473684210620e+00 1.627920000000000478e-01
4.684210526315789380e+00 1.135589999999999655e-01
5.052631578947368141e+00 6.468999999999991424e-02
5.421052631578946901e+00 1.617000000000001769e-02
5.789473684210525661e+00 0.000000000000000000e+00
6.157894736842105310e+00 0.000000000000000000e+00
6.526315789473684070e+00 0.000000000000000000e+00
6.894736842105262831e+00 0.000000000000000000e+00
7.263157894736841591e+00 0.000000000000000000e+00
7.631578947368420351e+00 0.000000000000000000e+00
8.000000000000000000e+00 0.000000000000000000e+00
